ABS,144hQC,144hQCOA
650.420453,-0.023204,-0.008635
652.284122,-0.016884,-0.003057
654.14779,-0.01981,-0.000654
656.011459,-0.011792,0.015133
657.875128,-0.017054,0.008207
659.738797,0.007191,0.026068
661.602466,0.010163,0.033835
663.466135,0.023982,0.048771
665.329804,0.048635,0.069948
667.193473,0.054098,0.078201
669.057142,0.058229,0.087009
670.920811,0.043004,0.071982
672.78448,0.02687,0.06258
674.648149,0.022511,0.061213
676.511817,0.02089,0.055866
678.375486,0.020068,0.05577
680.239155,0.016217,0.053444
682.102824,0.016129,0.053557
683.966493,0.010529,0.049799
685.830162,0.00667,0.045578
687.693831,0.009267,0.046096
689.5575,0.008458,0.047188
691.421169,0.014654,0.055098
693.284838,0.003032,0.046557
695.148507,-0.002363,0.042884
697.012176,0.002626,0.046901
698.875844,0.001285,0.044049
700.739513,0.009905,0.052678
702.603182,0.012259,0.055368
704.466851,0.016436,0.058224
706.33052,0.019562,0.06311
708.194189,0.014991,0.062565
710.057858,0.010202,0.0604
711.921527,0.015392,0.068281
713.785196,0.013549,0.071105
715.648865,0.010845,0.073785
717.512534,0.011586,0.079271
719.376203,0.013174,0.086419
721.239872,0.009596,0.08903
723.10354,0.007435,0.088665
724.967209,0.002887,0.080464
726.830878,0.004831,0.075508
728.694547,0.00666,0.069527
730.558216,0.001494,0.05994
732.421885,0.000932,0.055694
734.285554,-0.002795,0.045759
736.149223,-0.001057,0.042877
738.012892,0.000987,0.041524
739.876561,-0.000976,0.036023
741.74023,0.000877,0.035132
743.603899,0.001869,0.033971
745.467567,0.003575,0.034472
747.331236,0.005211,0.034617
749.194905,0.006677,0.034354
751.058574,0.005214,0.030917
752.922243,0.008531,0.033264
754.785912,0.008605,0.031716
756.649581,0.006651,0.027873
758.51325,0.008261,0.029388
760.376919,0.00851,0.029623
762.240588,0.007582,0.02777
764.104257,0.008087,0.027309
765.967926,0.004395,0.022912
767.831594,0.005669,0.023668
769.695263,0.006658,0.023874
771.558932,0.002609,0.018854
773.422601,0.001237,0.0172
775.28627,0.000925,0.016282
777.149939,0.001848,0.016968
779.013608,0.000763,0.016451
780.877277,0.000795,0.0165
782.740946,0.002721,0.017036
784.604615,0.007758,0.020341
786.468284,0.014223,0.025397
788.331953,0.016806,0.027009
790.195621,0.018459,0.02787
792.05929,0.016646,0.025955
793.922959,0.016154,0.026389
795.786628,0.014695,0.02684
797.650297,0.011661,0.025103
799.513966,0.011271,0.024767
801.377635,0.012794,0.025919
803.241304,0.012616,0.024798
805.104973,0.013583,0.024688
806.968642,0.012522,0.023563
808.832311,0.010179,0.022327
810.69598,0.007316,0.021128
812.559649,0.005734,0.020168
814.423317,0.00533,0.018701
816.286986,0.006742,0.019025
818.150655,0.008529,0.020265
820.014324,0.009814,0.021211
821.877993,0.011492,0.023284
823.741662,0.008807,0.021508
825.605331,0.00832,0.022304
827.469,0.007629,0.023201
829.332669,0.004822,0.021953
831.196338,0.003759,0.022035
833.060007,0.002125,0.021416
834.923676,0.001471,0.021749
836.787344,0.000194,0.021381
838.651013,0.000174,0.02248
840.514682,0.000236,0.023489
842.378351,-0.000138,0.023644
844.24202,-0.00077,0.022852
846.105689,0.000535,0.024155
847.969358,0.000604,0.024726
849.833027,-0.001222,0.023766
851.696696,-0.004424,0.021378
853.560365,-0.005322,0.020949
855.424034,-0.005985,0.020613
857.287703,-0.007132,0.019842
859.151371,-0.00864,0.018359
861.01504,-0.009147,0.018085
862.878709,-0.00786,0.020017
864.742378,-0.007703,0.020529
866.606047,-0.007341,0.021136
868.469716,-0.006961,0.021979
870.333385,-0.007106,0.022458
872.197054,-0.006352,0.024101
874.060723,-0.004952,0.026343
875.924392,-0.004154,0.028081
877.788061,-0.002583,0.03012
879.65173,0.001365,0.033172
881.515399,0.00353,0.034062
883.379067,0.002984,0.033531
885.242736,0.00081,0.032749
887.106405,-0.001199,0.033091
888.970074,-0.002396,0.034277
890.833743,-0.004119,0.034826
892.697412,-0.006512,0.034523
894.561081,-0.007427,0.035219
896.42475,-0.008178,0.035997
898.288419,-0.008024,0.037573
900.152088,-0.008538,0.038243
902.015757,-0.008823,0.039262
903.879426,-0.008868,0.040811
905.743094,-0.008898,0.042446
907.606763,-0.00825,0.044681
909.470432,-0.008418,0.046215
911.334101,-0.008289,0.04781
913.19777,-0.007896,0.049536
915.061439,-0.007479,0.051827
916.925108,-0.00703,0.054505
918.788777,-0.006628,0.056726
920.652446,-0.005927,0.058784
922.516115,-0.005084,0.061278
924.379784,-0.003501,0.064224
926.243453,-0.000944,0.067247
928.107121,0.001998,0.070412
929.97079,0.005225,0.07322
931.834459,0.008582,0.075665
933.698128,0.009064,0.075771
935.561797,0.007355,0.074339
937.425466,0.003518,0.071366
939.289135,-0.000145,0.068417
941.152804,-0.003827,0.064669
943.016473,-0.005665,0.062233
944.880142,-0.006532,0.060141
946.743811,-0.007791,0.056894
948.60748,-0.008474,0.053629
950.471148,-0.0087,0.05043
952.334817,-0.008353,0.047831
954.198486,-0.008625,0.044904
956.062155,-0.008864,0.042149
957.925824,-0.009013,0.039378
959.789493,-0.008908,0.037008
961.653162,-0.008278,0.035719
963.516831,-0.008473,0.033827
965.3805,-0.008102,0.032384
967.244169,-0.007627,0.030777
969.107838,-0.007435,0.028638
970.971507,-0.007641,0.026197
972.835176,-0.007747,0.024059
974.698844,-0.007526,0.022112
976.562513,-0.007311,0.020301
978.426182,-0.007698,0.018441
980.289851,-0.007795,0.017264
982.15352,-0.008026,0.016048
984.017189,-0.007512,0.015623
985.880858,-0.00742,0.014937
987.744527,-0.007091,0.014254
989.608196,-0.005853,0.014033
991.471865,-0.004219,0.014032
993.335534,-0.002078,0.014463
995.199203,0.001307,0.015833
997.062871,0.005643,0.018183
998.92654,0.008758,0.019982
1000.790209,0.009123,0.020057
1002.653878,0.00683,0.018373
1004.517547,0.004912,0.017064
1006.381216,0.006328,0.018262
1008.244885,0.008175,0.019701
1010.108554,0.007943,0.019614
1011.972223,0.005611,0.017307
1013.835892,0.002575,0.01431
1015.699561,-0.001148,0.011888
1017.56323,-0.004973,0.009695
1019.426898,-0.007059,0.008234
1021.290567,-0.007452,0.0078
1023.154236,-0.007535,0.007493
1025.017905,-0.007527,0.007569
1026.881574,-0.008025,0.007092
1028.745243,-0.008013,0.006647
1030.608912,-0.007513,0.006857
1032.472581,-0.006896,0.0076
1034.33625,-0.007451,0.007089
1036.199919,-0.007976,0.006485
1038.063588,-0.00773,0.006661
1039.927257,-0.007817,0.006436
1041.790926,-0.007639,0.006469
1043.654594,-0.007439,0.006651
1045.518263,-0.007493,0.006659
1047.381932,-0.006976,0.007115
1049.245601,-0.006665,0.007348
1051.10927,-0.006411,0.007617
1052.972939,-0.006469,0.007583
1054.836608,-0.006628,0.007543
1056.700277,-0.006467,0.007714
1058.563946,-0.006395,0.007604
1060.427615,-0.006609,0.007377
1062.291284,-0.006332,0.007657
1064.154953,-0.006168,0.007758
1066.018621,-0.006011,0.00787
1067.88229,-0.005897,0.007982
1069.745959,-0.005887,0.008214
1071.609628,-0.006024,0.008591
1073.473297,-0.005761,0.009571
1075.336966,-0.005667,0.010364
1077.200635,-0.005094,0.011573
1079.064304,-0.003875,0.013398
1080.927973,-0.002576,0.015053
1082.791642,-0.00077,0.016816
1084.655311,0.001698,0.018974
1086.51898,0.004643,0.021172
1088.382648,0.00882,0.023858
1090.246317,0.014035,0.026905
1092.109986,0.019546,0.030141
1093.973655,0.022821,0.031963
1095.837324,0.021701,0.030722
1097.700993,0.017043,0.026544
1099.564662,0.013025,0.022723
1101.428331,0.010976,0.020641
1103.292,0.010046,0.01992
1105.155669,0.008917,0.019746
1107.019338,0.006887,0.019261
1108.883007,0.004616,0.018754
1110.746675,0.002841,0.018838
1112.610344,0.000671,0.018383
1114.474013,-0.000608,0.018476
1116.337682,-0.001045,0.019052
1118.201351,-0.000937,0.019556
1120.06502,-0.000725,0.019289
1121.928689,-0.000637,0.018122
1123.792358,-0.000123,0.016816
1125.656027,0.000926,0.015982
1127.519696,0.001517,0.015083
1129.383365,0.001895,0.014462
1131.247034,0.002505,0.014603
1133.110703,0.00349,0.015402
1134.974371,0.005437,0.017232
1136.83804,0.007957,0.019549
1138.701709,0.010364,0.021307
1140.565378,0.01335,0.023131
1142.429047,0.015149,0.023991
1144.292716,0.013987,0.023262
1146.156385,0.011083,0.022144
1148.020054,0.008858,0.021401
1149.883723,0.009085,0.02191
1151.747392,0.011483,0.023869
1153.611061,0.014207,0.025792
1155.47473,0.017731,0.028226
1157.338398,0.021933,0.031341
1159.202067,0.02662,0.034871
1161.065736,0.0313,0.038304
1162.929405,0.035501,0.04176
1164.793074,0.038745,0.045193
1166.656743,0.040179,0.048209
1168.520412,0.038879,0.050403
1170.384081,0.035082,0.051467
1172.24775,0.030214,0.051421
1174.111419,0.024297,0.049113
1175.975088,0.01816,0.044768
1177.838757,0.01374,0.04079
1179.702425,0.011138,0.038289
1181.566094,0.010298,0.037663
1183.429763,0.010223,0.037959
1185.293432,0.010542,0.038737
1187.157101,0.011246,0.039806
1189.02077,0.01208,0.041095
1190.884439,0.012996,0.042813
1192.748108,0.014214,0.044691
1194.611777,0.015638,0.046648
1196.475446,0.01742,0.049189
1198.339115,0.019357,0.052239
1200.202784,0.02078,0.055484
1202.066453,0.021379,0.058553
1203.930121,0.022822,0.062755
1205.79379,0.0248,0.067496
1207.657459,0.026612,0.071746
1209.521128,0.028292,0.075378
1211.384797,0.029259,0.077657
1213.248466,0.028791,0.078155
1215.112135,0.027004,0.077269
1216.975804,0.025164,0.076129
1218.839473,0.023809,0.075395
1220.703142,0.022469,0.074524
1222.566811,0.022109,0.074328
1224.43048,0.022013,0.074275
1226.294148,0.021566,0.073599
1228.157817,0.020951,0.0726
1230.021486,0.021028,0.072304
1231.885155,0.021743,0.072481
1233.748824,0.023163,0.073466
1235.612493,0.02528,0.075473
1237.476162,0.028227,0.078487
1239.339831,0.031838,0.082228
1241.2035,0.035828,0.086461
1243.067169,0.039413,0.090379
1244.930838,0.042066,0.093441
1246.794507,0.04192,0.094419
1248.658175,0.039649,0.093757
1250.521844,0.035703,0.091307
1252.385513,0.029933,0.086988
1254.249182,0.024032,0.08209
1256.112851,0.019071,0.077356
1257.97652,0.016468,0.074797
1259.840189,0.015317,0.074009
1261.703858,0.014026,0.073131
1263.567527,0.013177,0.072356
1265.431196,0.013482,0.072853
1267.294865,0.014538,0.074739
1269.158534,0.015574,0.07713
1271.022202,0.015977,0.079522
1272.885871,0.014558,0.080975
1274.74954,0.013565,0.083385
1276.613209,0.014115,0.08741
1278.476878,0.015199,0.091852
1280.340547,0.016186,0.095405
1282.204216,0.017389,0.09751
1284.067885,0.01918,0.098257
1285.931554,0.022595,0.098808
1287.795223,0.025165,0.097174
1289.658892,0.025588,0.092701
1291.522561,0.02492,0.087384
1293.38623,0.025149,0.083926
1295.249898,0.025835,0.081936
1297.113567,0.025917,0.079954
1298.977236,0.02572,0.077825
1300.840905,0.025973,0.075777
1302.704574,0.027603,0.074419
1304.568243,0.030252,0.073362
1306.431912,0.034005,0.072709
1308.295581,0.038465,0.072152
1310.15925,0.044396,0.073129
1312.022919,0.052445,0.076898
1313.886588,0.058343,0.079121
1315.750257,0.062698,0.080359
1317.613925,0.066912,0.082682
1319.477594,0.065985,0.081411
1321.341263,0.058753,0.074765
1323.204932,0.050901,0.06778
1325.068601,0.043885,0.061685
1326.93227,0.037778,0.056206
1328.795939,0.032959,0.051507
1330.659608,0.030105,0.048372
1332.523277,0.02843,0.046145
1334.386946,0.030554,0.047563
1336.250615,0.038349,0.054606
1338.114284,0.049576,0.06531
1339.977952,0.050131,0.064838
1341.841621,0.040056,0.052849
1343.70529,0.035189,0.045798
1345.568959,0.038533,0.046461
1347.432628,0.044249,0.049464
1349.296297,0.049101,0.051786
1351.159966,0.053151,0.053328
1353.023635,0.057684,0.055736
1354.887304,0.060835,0.057423
1356.750973,0.061726,0.057744
1358.614642,0.063318,0.059617
1360.478311,0.071482,0.068819
1362.34198,0.076221,0.075529
1364.205648,0.064683,0.065794
1366.069317,0.053183,0.055899
1367.932986,0.050473,0.055653
1369.796655,0.047264,0.055183
1371.660324,0.046738,0.057567
1373.523993,0.049414,0.06496
1375.387662,0.0409,0.061636
1377.251331,0.028841,0.052034
1379.115,0.021239,0.043779
1380.978669,0.016095,0.035951
1382.842338,0.01164,0.029332
1384.706007,0.015713,0.033051
1386.569675,0.02095,0.039547
1388.433344,0.016602,0.036746
1390.297013,0.008642,0.0302
1392.160682,0.012509,0.036244
1394.024351,0.024363,0.052203
1395.88802,0.028546,0.061253
1397.751689,0.026118,0.064066
1399.615358,0.016267,0.0611
1401.479027,0.008169,0.059485
1403.342696,0.00848,0.067265
1405.206365,0.010902,0.079012
1407.070034,0.004134,0.079693
1408.933702,0.001561,0.082671
1410.797371,0.002615,0.087282
1412.66104,0.002753,0.086214
1414.524709,0.006042,0.084725
1416.388378,0.021698,0.094946
1418.252047,0.034579,0.104755
1420.115716,0.023866,0.090943
1421.979385,0.015633,0.079544
1423.843054,0.015633,0.07771
1425.706723,0.014299,0.074791
1427.570392,0.014613,0.074876
1429.434061,0.020115,0.082228
1431.297729,0.019128,0.082756
1433.161398,0.017655,0.081312
1435.025067,0.027379,0.092339
1436.888736,0.026716,0.094484
1438.752405,0.012151,0.07917
1440.616074,0.002545,0.068314
1442.479743,0.002326,0.067339
1444.343412,0.004559,0.068865
1446.207081,0.01182,0.07623
1448.07075,0.014398,0.080532
1449.934419,0.012082,0.079909
1451.798088,0.013552,0.083889
1453.661757,0.026184,0.100294
1455.525425,0.051321,0.132166
1457.389094,0.060845,0.149161
1459.252763,0.034326,0.121094
1461.116432,0.012956,0.096619
1462.980101,0.0143,0.097329
1464.84377,0.017627,0.099682
1466.707439,0.012496,0.086947
1468.571108,0.009191,0.068489
1470.434777,0.026437,0.067196
1472.298446,0.045436,0.068047
1474.162115,0.041596,0.054492
1476.025784,0.025736,0.035324
1477.889452,0.013785,0.020774
1479.753121,0.010779,0.015832
1481.61679,0.011847,0.014954
1483.480459,0.013143,0.014288
1485.344128,0.0224,0.022071
1487.207797,0.0415,0.039811
1489.071466,0.056848,0.053935
1490.935135,0.043931,0.039342
1492.798804,0.029406,0.022968
1494.662473,0.035779,0.027823
1496.526142,0.052186,0.042422
1498.389811,0.053663,0.04173
1500.253479,0.047543,0.033576
1502.117148,0.049137,0.033124
1503.980817,0.068717,0.051068
1505.844486,0.11854,0.099086
1507.708155,0.140785,0.116793
1509.571824,0.110633,0.083618
1511.435493,0.091428,0.064022
1513.299162,0.086251,0.061046
1515.162831,0.094112,0.072757
1517.0265,0.093745,0.076307
1518.890169,0.08894,0.073064
1520.753838,0.089851,0.075976
1522.617507,0.07819,0.066628
1524.481175,0.061797,0.052384
1526.344844,0.049061,0.042514
1528.208513,0.034445,0.030265
1530.072182,0.023893,0.021064
1531.935851,0.0326,0.030817
1533.79952,0.03444,0.032968
1535.663189,0.026063,0.023954
1537.526858,0.03652,0.034561
1539.390527,0.071861,0.070272
1541.254196,0.074578,0.072156
1543.117865,0.056621,0.05315
1544.981534,0.038828,0.034611
1546.845202,0.024329,0.019407
1548.708871,0.02752,0.022291
1550.57254,0.03212,0.026749
1552.436209,0.033387,0.027897
1554.299878,0.039958,0.034831
1556.163547,0.058659,0.054008
1558.027216,0.087433,0.085036
1559.890885,0.0661,0.065144
1561.754554,0.026571,0.024874
1563.618223,0.016357,0.0148
1565.481892,0.015085,0.013862
1567.345561,0.019174,0.018091
1569.209229,0.022957,0.022532
1571.072898,0.01325,0.012652
1572.936567,0.008308,0.00706
1574.800236,0.019708,0.018084
1576.663905,0.023314,0.021482
1578.527574,0.008926,0.006615
1580.391243,0.001269,-0.001474
1582.254912,0.002001,-0.001728
1584.118581,0.004711,-0.000378
1585.98225,0.006971,0.000415
1587.845919,0.011491,0.003645
1589.709588,0.016419,0.007275
1591.573256,0.020918,0.010459
1593.436925,0.024177,0.013375
1595.300594,0.0264,0.015522
1597.164263,0.025522,0.013726
1599.027932,0.026631,0.013769
1600.891601,0.031069,0.017274
1602.75527,0.036319,0.021454
1604.618939,0.038767,0.022788
1606.482608,0.042839,0.02617
1608.346277,0.046282,0.029255
1610.209946,0.046533,0.029545
1612.073615,0.044081,0.027812
1613.937284,0.048616,0.034666
1615.800952,0.057273,0.047632
1617.664621,0.049991,0.044515
1619.52829,0.035755,0.031958
1621.391959,0.035294,0.03332
1623.255628,0.033929,0.03448
1625.119297,0.02054,0.023099
1626.982966,0.012671,0.016995
1628.846635,0.007053,0.012735
1630.710304,0.000826,0.006845
1632.573973,0.005848,0.012261
1634.437642,0.027331,0.035138
1636.301311,0.03294,0.042199
1638.164979,0.013947,0.023012
1640.028648,0.002476,0.011908
1641.892317,0.002941,0.012725
1643.755986,0.013784,0.024213
1645.619655,0.037206,0.049066
1647.483324,0.044969,0.058035
1649.346993,0.031462,0.044104
1651.210662,0.042834,0.057388
1653.074331,0.070372,0.090042
1654.938,0.045279,0.064113
1656.801669,0.022478,0.040452
1658.665338,0.017151,0.03597
1660.529006,0.024694,0.04452
1662.392675,0.030884,0.052745
1664.256344,0.022885,0.045756
1666.120013,0.018745,0.042603
1667.983682,0.030084,0.056795
1669.847351,0.035026,0.065404
1671.71102,0.021373,0.052662
1673.574689,0.0173,0.050693
1675.438358,0.01534,0.05313
1677.302027,0.007174,0.047098
1679.165696,0.009647,0.052533
1681.029365,0.019729,0.067925
1682.893034,0.039512,0.097466
1684.756702,0.034757,0.109806
1686.620371,0.010996,0.092027
1688.48404,0.003136,0.092981
1690.347709,-0.001462,0.102152
1692.211378,-0.005676,0.111618
1694.075047,0.007669,0.143851
1695.938716,0.026369,0.203559
1697.802385,0.031293,0.242407
1699.666054,0.0353,0.297681
1701.529723,0.020069,0.346799
1703.393392,0.01018,0.357928
1705.257061,0.010216,0.387133
1707.120729,0.001764,0.3956
1708.984398,-0.007086,0.372284
1710.848067,-0.007336,0.341317
1712.711736,0.001505,0.309571
1714.575405,0.019135,0.280166
1716.439074,0.033064,0.245389
1718.302743,0.021229,0.189062
1720.166412,-0.003429,0.132335
1722.030081,-0.010195,0.102428
1723.89375,-0.010164,0.081477
1725.757419,-0.012639,0.063088
1727.621088,-0.009496,0.055394
1729.484756,0.003243,0.059791
1731.348425,0.014922,0.065269
1733.212094,0.027971,0.074806
1735.075763,0.014619,0.058596
1736.939432,-0.001042,0.039947
1738.803101,0.00161,0.041017
1740.66677,0.004187,0.041854
1742.530439,0.004425,0.040226
1744.394108,0.005778,0.039409
1746.257777,0.009915,0.041026
1748.121446,0.018762,0.046781
1749.985115,0.019895,0.045194
1751.848783,0.005554,0.028414
1753.712452,-0.009681,0.010682
1755.576121,-0.007304,0.011214
1757.43979,-0.003848,0.013186
1759.303459,-0.005844,0.009689
1761.167128,-0.002979,0.011552
1763.030797,-0.006814,0.006292
1764.894466,-0.01228,-0.000346
1766.758135,-0.004133,0.006885
1768.621804,0.003896,0.014373
1770.485473,0.010426,0.02057
1772.349142,0.012667,0.02255
1774.212811,0.0016,0.010321
1776.076479,-0.007485,0.000556
1777.940148,-0.009186,-0.0016
1779.803817,-0.004979,0.002533
1781.667486,-0.006586,0.000886
1783.531155,-0.008542,-0.001328
1785.394824,-0.00964,-0.002682
1787.258493,-0.012857,-0.006194
1789.122162,-0.007504,-0.001019
1790.985831,0.006019,0.012635
1792.8495,0.00564,0.012289
1794.713169,-0.004292,0.001995
1796.576838,-0.007133,-0.000894
1798.440506,-0.005573,0.000907
1800.304175,-0.000789,0.005393
1802.167844,-0.003869,0.001764
1804.031513,-0.012351,-0.006547
1805.895182,-0.015175,-0.009242
1807.758851,-0.012064,-0.006518
1809.62252,-0.007551,-0.002493
1811.486189,-0.007544,-0.002271
1813.349858,-0.014034,-0.008743
1815.213527,-0.016432,-0.011429
1817.077196,-0.014064,-0.009545
1818.940865,-0.013271,-0.009194
1820.804533,-0.013931,-0.009496
1822.668202,-0.009417,-0.004918
1824.531871,-0.001501,0.002434
1826.39554,-0.001568,0.002184
1828.259209,0.000243,0.004022
1830.122878,0.00242,0.005834
1831.986547,-0.009804,-0.006402
1833.850216,-0.015632,-0.012024
1835.713885,-0.014724,-0.011228
1837.577554,-0.013219,-0.009805
1839.441223,-0.014685,-0.011441
1841.304892,-0.010427,-0.007275
1843.168561,0.00059,0.003579
1845.032229,0.002016,0.00429
1846.895898,-0.007241,-0.005414
1848.759567,-0.012685,-0.010854
1850.623236,-0.017177,-0.015301
1852.486905,-0.017163,-0.015719
1854.350574,-0.016817,-0.01567
1856.214243,-0.01566,-0.014089
1858.077912,-0.014721,-0.012576
1859.941581,-0.012755,-0.011117
1861.80525,-0.013587,-0.012693
1863.668919,-0.012107,-0.01115
1865.532588,-0.005546,-0.004105
1867.396256,0.004622,0.006528
1869.259925,0.00259,0.00385
1871.123594,-0.009026,-0.008315
1872.987263,-0.016334,-0.01583
1874.850932,-0.017318,-0.016337
1876.714601,-0.017952,-0.016463
1878.57827,-0.017917,-0.016202
1880.441939,-0.017182,-0.016215
1882.305608,-0.015849,-0.015883
1884.169277,-0.016848,-0.016449
1886.032946,-0.016084,-0.015388
1887.896615,-0.013371,-0.012686
1889.760283,-0.008881,-0.008699
1891.623952,-0.014118,-0.014541
1893.487621,-0.015699,-0.015747
1895.35129,-0.013699,-0.012945
1897.214959,-0.014943,-0.014034
1899.078628,-0.016492,-0.016017
1900.942297,-0.01617,-0.015901
1902.805966,-0.017081,-0.01707
1904.669635,-0.014889,-0.015144
1906.533304,-0.011043,-0.011746
1908.396973,-0.007294,-0.008547
1910.260642,-0.011319,-0.011896
1912.12431,-0.016323,-0.016496
1913.987979,-0.016852,-0.017228
1915.851648,-0.011876,-0.011631
1917.715317,-0.007048,-0.006661
1919.578986,-0.009816,-0.010026
1921.442655,-0.011576,-0.011786
1923.306324,-0.007628,-0.008682
1925.169993,-0.013745,-0.015111
1927.033662,-0.017883,-0.019158
1928.897331,-0.021541,-0.022592
1930.761,-0.020029,-0.020794
1932.624669,-0.019617,-0.019822
1934.488338,-0.01892,-0.019404
1936.352006,-0.01945,-0.020966
1938.215675,-0.016312,-0.018979
1940.079344,-0.013101,-0.015001
1941.943013,-0.002833,-0.004978
1943.806682,-0.004083,-0.006746
1945.670351,-0.009613,-0.01264
1947.53402,-0.011064,-0.014509
1949.397689,-0.010317,-0.011984
1951.261358,-0.011927,-0.012767
1953.125027,-0.012162,-0.013705
1954.988696,-0.0143,-0.017825
1956.852365,-0.014167,-0.017583
1958.716033,-0.014204,-0.015334
1960.579702,-0.012807,-0.013929
1962.443371,-0.015389,-0.019248
1964.30704,-0.013753,-0.01964
1966.170709,-0.009147,-0.014124
1968.034378,-0.010429,-0.013553
1969.898047,-0.022242,-0.022807
1971.761716,-0.022467,-0.022642
1973.625385,-0.02079,-0.023062
1975.489054,-0.014997,-0.020131
1977.352723,-0.016145,-0.020897
1979.216392,-0.016759,-0.019407
1981.08006,-0.018697,-0.022528
1982.943729,-0.014975,-0.019182
1984.807398,-0.011729,-0.016599
1986.671067,-0.004994,-0.010359
1988.534736,-0.005458,-0.010352
1990.398405,-0.005148,-0.008742
1992.262074,-0.004139,-0.007697
1994.125743,-0.007307,-0.011691
1995.989412,-0.014697,-0.017107
1997.853081,-0.017688,-0.020565
1999.71675,-0.017427,-0.020955
2001.580419,-0.011956,-0.015402
2003.444088,-0.010467,-0.01545
2005.307756,-0.015214,-0.019835
2007.171425,-0.019038,-0.023246
2009.035094,-0.017349,-0.020702
2010.898763,-0.018471,-0.019822
2012.762432,-0.016087,-0.019322
2014.626101,-0.016248,-0.020643
2016.48977,-0.014006,-0.018695
2018.353439,-0.01695,-0.022633
2020.217108,-0.011369,-0.017396
2022.080777,-0.012689,-0.01795
2023.944446,-0.015216,-0.019584
2025.808115,-0.017265,-0.021066
2027.671783,-0.012463,-0.015195
2029.535452,-0.011872,-0.013664
2031.399121,-0.013587,-0.017089
2033.26279,-0.018269,-0.02238
2035.126459,-0.015071,-0.017867
2036.990128,-0.012721,-0.016162
2038.853797,-0.010819,-0.015697
2040.717466,-0.010054,-0.015696
2042.581135,-0.010542,-0.016486
2044.444804,-0.015576,-0.018965
2046.308473,-0.015592,-0.018336
2048.172142,-0.016117,-0.020686
2050.03581,-0.018129,-0.023402
2051.899479,-0.021414,-0.02576
2053.763148,-0.020827,-0.024065
2055.626817,-0.021647,-0.02451
2057.490486,-0.023116,-0.025383
2059.354155,-0.025308,-0.027692
2061.217824,-0.0199,-0.023908
2063.081493,-0.018172,-0.021818
2064.945162,-0.016642,-0.01979
2066.808831,-0.018288,-0.02196
2068.6725,-0.019356,-0.023449
2070.536169,-0.019229,-0.022693
2072.399837,-0.015173,-0.018503
2074.263506,-0.015304,-0.018637
2076.127175,-0.015721,-0.019606
2077.990844,-0.018087,-0.022758
2079.854513,-0.016636,-0.021669
2081.718182,-0.015499,-0.019954
2083.581851,-0.016866,-0.019841
2085.44552,-0.020422,-0.023164
2087.309189,-0.019679,-0.02392
2089.172858,-0.019847,-0.023869
2091.036527,-0.021012,-0.02468
2092.900196,-0.02201,-0.02593
2094.763865,-0.021876,-0.025288
2096.627533,-0.021567,-0.025177
2098.491202,-0.01972,-0.023465
2100.354871,-0.020968,-0.024555
2102.21854,-0.021073,-0.024534
2104.082209,-0.022004,-0.025484
2105.945878,-0.019529,-0.023665
2107.809547,-0.018554,-0.022104
2109.673216,-0.018802,-0.021973
2111.536885,-0.019917,-0.023914
2113.400554,-0.018192,-0.022794
2115.264223,-0.017964,-0.022908
2117.127892,-0.017515,-0.021472
2118.99156,-0.018914,-0.022347
2120.855229,-0.01867,-0.022441
2122.718898,-0.018458,-0.021545
2124.582567,-0.017201,-0.020734
2126.446236,-0.017547,-0.022003
2128.309905,-0.016337,-0.020902
2130.173574,-0.016173,-0.019969
2132.037243,-0.016608,-0.019641
2133.900912,-0.015848,-0.019872
2135.764581,-0.0162,-0.020512
2137.62825,-0.017968,-0.02172
2139.491919,-0.019383,-0.0243
2141.355587,-0.021274,-0.02645
2143.219256,-0.017412,-0.022229
2145.082925,-0.015957,-0.02096
2146.946594,-0.014841,-0.018956
2148.810263,-0.019089,-0.022917
2150.673932,-0.016735,-0.021978
2152.537601,-0.013891,-0.01831
2154.40127,-0.010992,-0.012146
2156.264939,-0.014387,-0.015151
2158.128608,-0.015253,-0.018708
2159.992277,-0.011422,-0.017121
2161.855946,-0.009514,-0.014525
2163.719615,-0.015126,-0.018158
2165.583283,-0.013793,-0.017566
2167.446952,-0.015723,-0.020813
2169.310621,-0.011663,-0.017236
2171.17429,-0.012883,-0.016746
2173.037959,-0.016527,-0.021419
2174.901628,-0.018586,-0.024257
2176.765297,-0.018767,-0.023996
2178.628966,-0.018156,-0.024933
2180.492635,-0.018954,-0.026418
2182.356304,-0.023843,-0.030161
2184.219973,-0.024673,-0.029191
2186.083642,-0.024541,-0.027923
2187.94731,-0.021588,-0.025493
2189.810979,-0.022294,-0.026643
2191.674648,-0.018931,-0.023858
2193.538317,-0.021044,-0.026056
2195.401986,-0.019436,-0.024132
2197.265655,-0.018607,-0.023564
2199.129324,-0.017741,-0.022092
2200.992993,-0.016551,-0.020887
2202.856662,-0.013934,-0.018793
2204.720331,-0.015346,-0.021499
2206.584,-0.013145,-0.020768
2208.447669,-0.015142,-0.021536
2210.311337,-0.016057,-0.020309
2212.175006,-0.016273,-0.020693
2214.038675,-0.017384,-0.022051
2215.902344,-0.020515,-0.023558
2217.766013,-0.023177,-0.024802
2219.629682,-0.02493,-0.027826
2221.493351,-0.024407,-0.028612
2223.35702,-0.023709,-0.028268
2225.220689,-0.023004,-0.027367
2227.084358,-0.023607,-0.027766
2228.948027,-0.021903,-0.026381
2230.811696,-0.020331,-0.024284
2232.675364,-0.019455,-0.022345
2234.539033,-0.022537,-0.025892
2236.402702,-0.021027,-0.025586
2238.266371,-0.020327,-0.024622
2240.13004,-0.019227,-0.023343
2241.993709,-0.020899,-0.025005
2243.857378,-0.0207,-0.025671
2245.721047,-0.020167,-0.025598
2247.584716,-0.018199,-0.022198
2249.448385,-0.017567,-0.021753
2251.312054,-0.017083,-0.021919
2253.175723,-0.019203,-0.024194
2255.039392,-0.018821,-0.023573
2256.90306,-0.018404,-0.023191
2258.766729,-0.019569,-0.02439
2260.630398,-0.020995,-0.025531
2262.494067,-0.020805,-0.024724
2264.357736,-0.020687,-0.024388
2266.221405,-0.020957,-0.025068
2268.085074,-0.02296,-0.026841
2269.948743,-0.024216,-0.027636
2271.812412,-0.024219,-0.027743
2273.676081,-0.022369,-0.026913
2275.53975,-0.022347,-0.027203
2277.403419,-0.022427,-0.026518
2279.267087,-0.022696,-0.026413
2281.130756,-0.02202,-0.026052
2282.994425,-0.021923,-0.02641
2284.858094,-0.021123,-0.025138
2286.721763,-0.021027,-0.025114
2288.585432,-0.020519,-0.024732
2290.449101,-0.020425,-0.023851
2292.31277,-0.019446,-0.022362
2294.176439,-0.018934,-0.022371
2296.040108,-0.017293,-0.020946
2297.903777,-0.01656,-0.020237
2299.767446,-0.016023,-0.019677
2301.631114,-0.015926,-0.019513
2303.494783,-0.01438,-0.018226
2305.358452,-0.013233,-0.016954
2307.222121,-0.012376,-0.01558
2309.08579,-0.010242,-0.013347
2310.949459,-0.007828,-0.010987
2312.813128,-0.007209,-0.010696
2314.676797,-0.007496,-0.010893
2316.540466,-0.006924,-0.009637
2318.404135,-0.004418,-0.007228
2320.267804,-0.00324,-0.006483
2322.131473,-0.002425,-0.005955
2323.995142,-0.002749,-0.006067
2325.85881,-0.002315,-0.005016
2327.722479,-0.000984,-0.003458
2329.586148,0.001137,-0.001671
2331.449817,-0.000649,-0.00386
2333.313486,-0.002017,-0.005136
2335.177155,-0.002488,-0.005001
2337.040824,-0.002816,-0.00511
2338.904493,-0.004495,-0.006606
2340.768162,-0.003476,-0.005888
2342.631831,-0.002267,-0.005267
2344.4955,-0.001102,-0.004348
2346.359169,-0.004039,-0.007077
2348.222837,-0.008004,-0.010776
2350.086506,-0.006844,-0.009251
2351.950175,-0.000902,-0.003136
2353.813844,0.002353,0.000115
2355.677513,0.003754,0.001438
2357.541182,0.004168,0.00142
2359.404851,0.005418,0.002227
2361.26852,0.005481,0.002576
2363.132189,0.005066,0.002875
2364.995858,0.00525,0.002749
2366.859527,0.006027,0.002912
2368.723196,0.002598,-0.000081
2370.586864,0.003166,0.000788
2372.450533,0.00267,0.000467
2374.314202,0.000038,-0.002418
2376.177871,-0.003408,-0.005953
2378.04154,-0.006841,-0.009826
2379.905209,-0.011597,-0.014732
2381.768878,-0.015081,-0.01811
2383.632547,-0.018701,-0.021444
2385.496216,-0.020074,-0.02309
2387.359885,-0.02142,-0.024646
2389.223554,-0.02243,-0.025371
2391.087223,-0.023262,-0.02599
2392.950891,-0.023565,-0.026171
2394.81456,-0.023986,-0.026495
2396.678229,-0.024143,-0.026693
2398.541898,-0.024071,-0.026918
2400.405567,-0.023569,-0.026236
2402.269236,-0.024165,-0.026413
2404.132905,-0.02459,-0.02686
2405.996574,-0.023841,-0.026481
2407.860243,-0.022968,-0.025335
2409.723912,-0.02424,-0.026273
2411.587581,-0.023857,-0.025881
2413.45125,-0.022934,-0.025106
2415.314919,-0.021855,-0.02404
2417.178587,-0.022435,-0.024444
2419.042256,-0.023096,-0.025001
2420.905925,-0.023733,-0.025716
2422.769594,-0.023208,-0.025218
2424.633263,-0.023035,-0.025214
2426.496932,-0.023352,-0.025697
2428.360601,-0.024873,-0.027071
2430.22427,-0.024767,-0.026769
2432.087939,-0.02424,-0.026232
2433.951608,-0.024511,-0.026439
2435.815277,-0.02584,-0.028003
2437.678946,-0.026123,-0.027791
2439.542614,-0.026012,-0.026643
2441.406283,-0.025368,-0.02644
2443.269952,-0.025124,-0.027015
2445.133621,-0.024785,-0.026489
2446.99729,-0.025009,-0.026535
2448.860959,-0.024345,-0.02577
2450.724628,-0.024429,-0.025445
2452.588297,-0.024183,-0.024886
2454.451966,-0.023953,-0.024799
2456.315635,-0.022979,-0.024367
2458.179304,-0.023561,-0.024801
2460.042973,-0.023871,-0.024817
2461.906641,-0.024293,-0.025055
2463.77031,-0.023667,-0.024472
2465.633979,-0.023988,-0.024447
2467.497648,-0.02466,-0.024624
2469.361317,-0.024273,-0.02455
2471.224986,-0.023412,-0.023183
2473.088655,-0.024779,-0.023856
2474.952324,-0.024511,-0.024012
2476.815993,-0.024556,-0.024321
2478.679662,-0.024819,-0.024214
2480.543331,-0.026035,-0.025251
2482.407,-0.0267,-0.0259
2484.270669,-0.026349,-0.025271
2486.134337,-0.024718,-0.023215
2487.998006,-0.025287,-0.023773
2489.861675,-0.025646,-0.024152
2491.725344,-0.024647,-0.02329
2493.589013,-0.023591,-0.021778
2495.452682,-0.023874,-0.022193
2497.316351,-0.02415,-0.022822
2499.18002,-0.024697,-0.022964
2501.043689,-0.02354,-0.021251
2502.907358,-0.02305,-0.020134
2504.771027,-0.023259,-0.019406
2506.634696,-0.024323,-0.020118
2508.498364,-0.02431,-0.020582
2510.362033,-0.023947,-0.019924
2512.225702,-0.023542,-0.019158
2514.089371,-0.025554,-0.020948
2515.95304,-0.026456,-0.021455
2517.816709,-0.026147,-0.02112
2519.680378,-0.024825,-0.019925
2521.544047,-0.024902,-0.019914
2523.407716,-0.026331,-0.020976
2525.271385,-0.026648,-0.020881
2527.135054,-0.025029,-0.019008
2528.998723,-0.024811,-0.018829
2530.862391,-0.025349,-0.018938
2532.72606,-0.025717,-0.018465
2534.589729,-0.024983,-0.01751
2536.453398,-0.024861,-0.017542
2538.317067,-0.023697,-0.016052
2540.180736,-0.023628,-0.015756
2542.044405,-0.023539,-0.015444
2543.908074,-0.024119,-0.015656
2545.771743,-0.024524,-0.015963
2547.635412,-0.02428,-0.016
2549.499081,-0.023796,-0.015693
2551.36275,-0.02418,-0.015972
2553.226418,-0.023911,-0.015055
2555.090087,-0.024671,-0.014794
2556.953756,-0.025299,-0.014996
2558.817425,-0.02582,-0.015733
2560.681094,-0.025636,-0.015987
2562.544763,-0.025834,-0.016347
2564.408432,-0.025065,-0.015098
2566.272101,-0.025146,-0.014557
2568.13577,-0.025543,-0.015029
2569.999439,-0.025298,-0.015072
2571.863108,-0.024945,-0.014686
2573.726777,-0.025138,-0.014917
2575.590446,-0.024547,-0.014269
2577.454114,-0.024783,-0.014169
2579.317783,-0.024138,-0.013242
2581.181452,-0.024517,-0.01337
2583.045121,-0.024933,-0.013858
2584.90879,-0.025337,-0.014343
2586.772459,-0.024974,-0.013909
2588.636128,-0.024569,-0.013143
2590.499797,-0.024125,-0.012814
2592.363466,-0.024085,-0.013336
2594.227135,-0.023708,-0.012575
2596.090804,-0.024329,-0.01217
2597.954473,-0.023988,-0.011568
2599.818141,-0.024029,-0.012076
2601.68181,-0.024607,-0.012882
2603.545479,-0.025567,-0.013455
2605.409148,-0.025408,-0.012555
2607.272817,-0.02547,-0.012363
2609.136486,-0.0254,-0.012747
2611.000155,-0.025813,-0.013212
2612.863824,-0.025965,-0.012799
2614.727493,-0.0253,-0.012288
2616.591162,-0.024841,-0.012147
2618.454831,-0.02548,-0.01224
2620.3185,-0.024912,-0.011355
2622.182168,-0.025206,-0.011201
2624.045837,-0.024794,-0.010645
2625.909506,-0.024371,-0.010262
2627.773175,-0.024097,-0.009732
2629.636844,-0.024605,-0.009838
2631.500513,-0.024797,-0.0099
2633.364182,-0.024954,-0.009817
2635.227851,-0.024602,-0.009423
2637.09152,-0.024659,-0.009525
2638.955189,-0.024894,-0.009283
2640.818858,-0.025349,-0.009389
2642.682527,-0.025256,-0.009265
2644.546196,-0.025452,-0.009555
2646.409864,-0.025374,-0.009396
2648.273533,-0.025958,-0.009602
2650.137202,-0.026151,-0.009336
2652.000871,-0.026164,-0.009265
2653.86454,-0.025945,-0.008871
2655.728209,-0.025716,-0.008292
2657.591878,-0.025573,-0.008032
2659.455547,-0.025614,-0.008121
2661.319216,-0.025454,-0.007896
2663.182885,-0.025443,-0.007696
2665.046554,-0.024996,-0.007014
2666.910223,-0.025058,-0.007
2668.773891,-0.024505,-0.006333
2670.63756,-0.024207,-0.005995
2672.501229,-0.024231,-0.00625
2674.364898,-0.024392,-0.006722
2676.228567,-0.0247,-0.007026
2678.092236,-0.025082,-0.007464
2679.955905,-0.02489,-0.007491
2681.819574,-0.024947,-0.007842
2683.683243,-0.024937,-0.008084
2685.546912,-0.025396,-0.008584
2687.410581,-0.025134,-0.008608
2689.27425,-0.024813,-0.009083
2691.137918,-0.024527,-0.009261
2693.001587,-0.024541,-0.00935
2694.865256,-0.024317,-0.009401
2696.728925,-0.024835,-0.01019
2698.592594,-0.025023,-0.010493
2700.456263,-0.024785,-0.010511
2702.319932,-0.024301,-0.010318
2704.183601,-0.024468,-0.010458
2706.04727,-0.024495,-0.010439
2707.910939,-0.024207,-0.01024
2709.774608,-0.023728,-0.009784
2711.638277,-0.023859,-0.009982
2713.501945,-0.023794,-0.00978
2715.365614,-0.024006,-0.009939
2717.229283,-0.024114,-0.010084
2719.092952,-0.02402,-0.010133
2720.956621,-0.023549,-0.009954
2722.82029,-0.023612,-0.009902
2724.683959,-0.023757,-0.009705
2726.547628,-0.024114,-0.010123
2728.411297,-0.024271,-0.010275
2730.274966,-0.024467,-0.010274
2732.138635,-0.024568,-0.010142
2734.002304,-0.02448,-0.010346
2735.865973,-0.024332,-0.010322
2737.729641,-0.024652,-0.010268
2739.59331,-0.024583,-0.010134
2741.456979,-0.024318,-0.009961
2743.320648,-0.024553,-0.010051
2745.184317,-0.024909,-0.010503
2747.047986,-0.024562,-0.01006
2748.911655,-0.024635,-0.010025
2750.775324,-0.024486,-0.01001
2752.638993,-0.024855,-0.010278
2754.502662,-0.024338,-0.009514
2756.366331,-0.023778,-0.009107
2758.23,-0.023861,-0.009291
2760.093668,-0.024401,-0.009622
2761.957337,-0.024424,-0.009553
2763.821006,-0.024164,-0.0095
2765.684675,-0.023843,-0.009074
2767.548344,-0.024525,-0.009258
2769.412013,-0.024966,-0.009315
2771.275682,-0.025181,-0.00974
2773.139351,-0.024625,-0.009462
2775.00302,-0.024451,-0.008854
2776.866689,-0.025032,-0.008547
2778.730358,-0.025734,-0.008732
2780.594027,-0.025243,-0.008206
2782.457695,-0.024943,-0.007839
2784.321364,-0.025017,-0.007414
2786.185033,-0.024862,-0.006572
2788.048702,-0.02471,-0.006061
2789.912371,-0.024705,-0.005561
2791.77604,-0.02467,-0.004855
2793.639709,-0.024897,-0.004548
2795.503378,-0.024484,-0.003457
2797.367047,-0.024763,-0.00297
2799.230716,-0.024697,-0.002465
2801.094385,-0.02447,-0.00157
2802.958054,-0.024333,-0.000627
2804.821723,-0.024378,0.000096
2806.685391,-0.024246,0.001239
2808.54906,-0.024628,0.002124
2810.412729,-0.024578,0.003272
2812.276398,-0.024668,0.00417
2814.140067,-0.024526,0.005655
2816.003736,-0.025139,0.006769
2817.867405,-0.024851,0.008578
2819.731074,-0.024733,0.010143
2821.594743,-0.024344,0.012253
2823.458412,-0.024302,0.014726
2825.322081,-0.024638,0.017574
2827.18575,-0.024734,0.020995
2829.049418,-0.02474,0.02475
2830.913087,-0.024578,0.029145
2832.776756,-0.024249,0.03437
2834.640425,-0.023966,0.040656
2836.504094,-0.02354,0.048413
2838.367763,-0.02377,0.057177
2840.231432,-0.024161,0.06873
2842.095101,-0.02411,0.084228
2843.95877,-0.023026,0.104037
2845.822439,-0.02327,0.125213
2847.686108,-0.024104,0.14701
2849.549777,-0.024396,0.166002
2851.413445,-0.023407,0.178863
2853.277114,-0.023029,0.180747
2855.140783,-0.023222,0.17105
2857.004452,-0.023839,0.15279
2858.868121,-0.023788,0.132357
2860.73179,-0.024218,0.112478
2862.595459,-0.024065,0.096549
2864.459128,-0.024029,0.084487
2866.322797,-0.024181,0.076479
2868.186466,-0.02446,0.072261
2870.050135,-0.02438,0.070524
2871.913804,-0.024011,0.069068
2873.777472,-0.024032,0.066126
2875.641141,-0.024659,0.06213
2877.50481,-0.024191,0.060047
2879.368479,-0.023497,0.059576
2881.232148,-0.023394,0.060418
2883.095817,-0.023674,0.062525
2884.959486,-0.023582,0.066459
2886.823155,-0.02356,0.071278
2888.686824,-0.023363,0.076742
2890.550493,-0.023196,0.082654
2892.414162,-0.022878,0.089711
2894.277831,-0.02313,0.096791
2896.1415,-0.023384,0.103977
2898.005168,-0.02361,0.111226
2899.868837,-0.023214,0.11948
2901.732506,-0.023486,0.127947
2903.596175,-0.023534,0.138031
2905.459844,-0.023891,0.148124
2907.323513,-0.023905,0.159584
2909.187182,-0.023528,0.172764
2911.050851,-0.023478,0.187447
2912.91452,-0.023843,0.202822
2914.778189,-0.02363,0.218774
2916.641858,-0.023183,0.234515
2918.505527,-0.023297,0.247157
2920.369195,-0.02328,0.254959
2922.232864,-0.022449,0.256923
2924.096533,-0.021789,0.25087
2925.960202,-0.021469,0.238829
2927.823871,-0.022163,0.221525
2929.68754,-0.022095,0.202612
2931.551209,-0.022,0.18276
2933.414878,-0.022238,0.163853
2935.278547,-0.022351,0.146192
2937.142216,-0.022252,0.12967
2939.005885,-0.022967,0.114566
2940.869554,-0.023043,0.1026
2942.733222,-0.023265,0.092569
2944.596891,-0.023227,0.084534
2946.46056,-0.023463,0.078359
2948.324229,-0.02313,0.075119
2950.187898,-0.023241,0.073375
2952.051567,-0.023249,0.072476
2953.915236,-0.023389,0.071117
2955.778905,-0.023115,0.069115
2957.642574,-0.023041,0.065636
2959.506243,-0.023348,0.060351
2961.369912,-0.023431,0.054156
2963.233581,-0.023521,0.047388
2965.09725,-0.02331,0.041177
2966.960918,-0.022815,0.03584
2968.824587,-0.023019,0.030102
2970.688256,-0.02249,0.025715
2972.551925,-0.022599,0.021673
2974.415594,-0.022364,0.018677
2976.279263,-0.022405,0.015652
2978.142932,-0.022991,0.012743
2980.006601,-0.023515,0.010665
2981.87027,-0.02377,0.009221
2983.733939,-0.024158,0.007855
2985.597608,-0.023766,0.007374
2987.461277,-0.023606,0.006989
2989.324945,-0.023468,0.007309
2991.188614,-0.024287,0.00711
2993.052283,-0.024308,0.007876
2994.915952,-0.024512,0.009192
2996.779621,-0.024735,0.010908
2998.64329,-0.024817,0.013085
3000.506959,-0.024601,0.015247
3002.370628,-0.023978,0.017241
3004.234297,-0.023675,0.018679
3006.097966,-0.02388,0.018632
3007.961635,-0.023638,0.017392
3009.825304,-0.023057,0.015787
3011.688972,-0.022407,0.013962
3013.552641,-0.022523,0.01131
3015.41631,-0.022735,0.008897
3017.279979,-0.023446,0.005999
3019.143648,-0.023564,0.004019
3021.007317,-0.023674,0.002336
3022.870986,-0.0239,0.001069
3024.734655,-0.023833,0.000212
3026.598324,-0.023491,-0.000245
3028.461993,-0.023357,-0.00027
3030.325662,-0.023418,-0.000495
3032.189331,-0.024097,-0.001743
3034.052999,-0.023762,-0.002169
3035.916668,-0.023741,-0.002568
3037.780337,-0.023626,-0.002645
3039.644006,-0.024309,-0.003263
3041.507675,-0.024798,-0.003825
3043.371344,-0.024425,-0.003996
3045.235013,-0.02388,-0.00403
3047.098682,-0.023475,-0.003717
3048.962351,-0.023238,-0.003164
3050.82602,-0.023456,-0.003728
3052.689689,-0.022941,-0.004016
3054.553358,-0.022349,-0.003834
3056.417027,-0.022378,-0.00413
3058.280695,-0.022605,-0.004705
3060.144364,-0.022248,-0.00458
3062.008033,-0.021575,-0.004302
3063.871702,-0.020602,-0.00364
3065.735371,-0.020811,-0.003912
3067.59904,-0.0219,-0.005213
3069.462709,-0.022744,-0.006173
3071.326378,-0.022495,-0.006101
3073.190047,-0.022374,-0.006677
3075.053716,-0.022127,-0.007011
3076.917385,-0.022079,-0.007395
3078.781054,-0.021095,-0.006681
3080.644722,-0.021116,-0.006421
3082.508391,-0.021241,-0.006863
3084.37206,-0.021543,-0.007702
3086.235729,-0.02168,-0.008009
3088.099398,-0.021367,-0.007887
3089.963067,-0.021612,-0.008113
3091.826736,-0.021361,-0.007657
3093.690405,-0.020176,-0.006616
3095.554074,-0.019752,-0.00645
3097.417743,-0.019706,-0.006294
3099.281412,-0.01985,-0.006566
3101.145081,-0.019872,-0.007329
3103.008749,-0.020568,-0.008221
3104.872418,-0.020341,-0.008313
3106.736087,-0.020017,-0.008612
3108.599756,-0.020359,-0.009235
3110.463425,-0.020475,-0.009624
3112.327094,-0.020383,-0.009571
3114.190763,-0.020303,-0.009819
3116.054432,-0.01945,-0.009707
3117.918101,-0.020008,-0.010542
3119.78177,-0.020499,-0.011326
3121.645439,-0.020498,-0.011656
3123.509108,-0.019827,-0.01109
3125.372777,-0.019741,-0.011216
3127.236445,-0.019691,-0.011547
3129.100114,-0.019788,-0.01274
3130.963783,-0.019573,-0.013238
3132.827452,-0.018624,-0.012352
3134.691121,-0.018819,-0.012521
3136.55479,-0.019915,-0.013577
3138.418459,-0.02008,-0.014237
3140.282128,-0.019126,-0.014142
3142.145797,-0.017736,-0.01357
3144.009466,-0.018075,-0.014225
3145.873135,-0.01831,-0.014525
3147.736804,-0.018147,-0.014512
3149.600472,-0.017712,-0.014263
3151.464141,-0.017858,-0.014691
3153.32781,-0.018529,-0.0158
3155.191479,-0.018945,-0.016913
3157.055148,-0.018604,-0.016808
3158.918817,-0.01811,-0.016718
3160.782486,-0.017858,-0.017267
3162.646155,-0.01823,-0.017842
3164.509824,-0.017802,-0.017291
3166.373493,-0.017821,-0.01757
3168.237162,-0.016887,-0.017075
3170.100831,-0.016493,-0.017228
3171.964499,-0.01659,-0.017537
3173.828168,-0.016368,-0.017205
3175.691837,-0.016112,-0.017456
3177.555506,-0.015631,-0.017419
3179.419175,-0.014731,-0.017189
3181.282844,-0.014826,-0.017726
3183.146513,-0.014532,-0.017174
3185.010182,-0.014454,-0.017123
3186.873851,-0.014419,-0.017444
3188.73752,-0.014699,-0.017867
3190.601189,-0.014919,-0.018487
3192.464858,-0.014807,-0.019067
3194.328526,-0.014298,-0.018884
3196.192195,-0.014296,-0.01886
3198.055864,-0.013928,-0.018657
3199.919533,-0.014141,-0.019124
3201.783202,-0.014587,-0.019928
3203.646871,-0.014098,-0.020084
3205.51054,-0.014441,-0.02057
3207.374209,-0.015133,-0.021413
3209.237878,-0.013297,-0.020584
3211.101547,-0.013076,-0.020722
3212.965216,-0.013618,-0.020998
3214.828885,-0.013656,-0.020965
3216.692554,-0.014086,-0.021736
3218.556222,-0.013352,-0.021506
3220.419891,-0.011784,-0.020226
3222.28356,-0.011469,-0.020089
3224.147229,-0.011472,-0.020425
3226.010898,-0.011913,-0.020881
3227.874567,-0.011254,-0.02031
3229.738236,-0.010876,-0.020461
3231.601905,-0.011155,-0.021277
3233.465574,-0.01192,-0.021923
3235.329243,-0.012319,-0.022164
3237.192912,-0.012345,-0.022784
3239.056581,-0.012187,-0.023042
3240.920249,-0.011947,-0.023006
3242.783918,-0.011581,-0.023156
3244.647587,-0.011828,-0.023809
3246.511256,-0.012105,-0.024626
3248.374925,-0.012609,-0.02568
3250.238594,-0.012848,-0.026111
3252.102263,-0.012987,-0.026116
3253.965932,-0.011882,-0.024971
3255.829601,-0.01117,-0.024673
3257.69327,-0.011315,-0.024999
3259.556939,-0.012163,-0.025863
3261.420608,-0.012594,-0.026529
3263.284276,-0.011982,-0.025924
3265.147945,-0.011872,-0.025801
3267.011614,-0.011714,-0.026072
3268.875283,-0.011373,-0.026168
3270.738952,-0.011449,-0.026035
3272.602621,-0.010484,-0.024853
3274.46629,-0.010456,-0.024888
3276.329959,-0.011016,-0.026045
3278.193628,-0.011848,-0.027456
3280.057297,-0.012194,-0.027748
3281.920966,-0.012005,-0.027223
3283.784635,-0.011427,-0.026594
3285.648304,-0.011829,-0.027549
3287.511972,-0.012444,-0.028768
3289.375641,-0.012817,-0.029093
3291.23931,-0.012474,-0.028477
3293.102979,-0.012511,-0.02869
3294.966648,-0.013185,-0.029459
3296.830317,-0.014767,-0.030796
3298.693986,-0.015038,-0.031045
3300.557655,-0.014595,-0.03034
3302.421324,-0.01427,-0.030186
3304.284993,-0.01416,-0.030887
3306.148662,-0.013748,-0.03072
3308.012331,-0.012771,-0.029486
3309.875999,-0.012494,-0.029117
3311.739668,-0.013876,-0.030496
3313.603337,-0.014289,-0.031056
3315.467006,-0.014309,-0.031441
3317.330675,-0.014724,-0.032154
3319.194344,-0.015788,-0.032541
3321.058013,-0.016717,-0.033198
3322.921682,-0.017186,-0.034356
3324.785351,-0.017062,-0.034078
3326.64902,-0.017022,-0.033455
3328.512689,-0.017505,-0.033823
3330.376358,-0.018309,-0.034673
3332.240026,-0.018695,-0.03538
3334.103695,-0.019186,-0.036329
3335.967364,-0.018713,-0.035939
3337.831033,-0.019332,-0.036273
3339.694702,-0.020193,-0.037094
3341.558371,-0.020954,-0.03766
3343.42204,-0.020674,-0.036966
3345.285709,-0.020276,-0.036584
3347.149378,-0.02018,-0.037219
3349.013047,-0.019592,-0.037353
3350.876716,-0.019572,-0.037356
3352.740385,-0.019218,-0.036794
3354.604053,-0.018736,-0.036035
3356.467722,-0.01944,-0.036581
3358.331391,-0.020108,-0.037297
3360.19506,-0.020651,-0.038039
3362.058729,-0.02058,-0.038216
3363.922398,-0.020786,-0.038715
3365.786067,-0.020857,-0.038872
3367.649736,-0.021276,-0.038693
3369.513405,-0.022434,-0.039136
3371.377074,-0.023827,-0.040097
3373.240743,-0.024684,-0.041315
3375.104412,-0.024388,-0.041874
3376.968081,-0.023578,-0.041522
3378.831749,-0.023387,-0.041329
3380.695418,-0.023655,-0.041603
3382.559087,-0.025268,-0.043227
3384.422756,-0.025063,-0.042677
3386.286425,-0.02506,-0.04194
3388.150094,-0.025214,-0.042223
3390.013763,-0.02396,-0.041823
3391.877432,-0.023251,-0.041411
3393.741101,-0.023249,-0.04128
3395.60477,-0.023918,-0.042458
3397.468439,-0.024218,-0.042739
3399.332108,-0.025239,-0.042555
3401.195776,-0.026167,-0.042404
3403.059445,-0.025325,-0.041285
3404.923114,-0.026453,-0.042859
3406.786783,-0.027756,-0.044989
3408.650452,-0.028,-0.045207
3410.514121,-0.027099,-0.04385
3412.37779,-0.026755,-0.043364
3414.241459,-0.027924,-0.044764
3416.105128,-0.028413,-0.046165
3417.968797,-0.027347,-0.045646
3419.832466,-0.025914,-0.043756
3421.696135,-0.025397,-0.042746
3423.559803,-0.027755,-0.045134
3425.423472,-0.029117,-0.046963
3427.287141,-0.028897,-0.047531
3429.15081,-0.029019,-0.047476
3431.014479,-0.029483,-0.046695
3432.878148,-0.029276,-0.045912
3434.741817,-0.029514,-0.045895
3436.605486,-0.029999,-0.045842
3438.469155,-0.028859,-0.04428
3440.332824,-0.027581,-0.043319
3442.196493,-0.026078,-0.042671
3444.060162,-0.025081,-0.042367
3445.923831,-0.024137,-0.041604
3447.787499,-0.023844,-0.041075
3449.651168,-0.027917,-0.044449
3451.514837,-0.031594,-0.047367
3453.378506,-0.032454,-0.048044
3455.242175,-0.031963,-0.048037
3457.105844,-0.031013,-0.047291
3458.969513,-0.030657,-0.046573
3460.833182,-0.030407,-0.04659
3462.696851,-0.030707,-0.047082
3464.56052,-0.032632,-0.048316
3466.424189,-0.033524,-0.048954
3468.287858,-0.034527,-0.049358
3470.151526,-0.035322,-0.049226
3472.015195,-0.034796,-0.048943
3473.878864,-0.03373,-0.048335
3475.742533,-0.033905,-0.048022
3477.606202,-0.033863,-0.047956
3479.469871,-0.032411,-0.046643
3481.33354,-0.031323,-0.045018
3483.197209,-0.030896,-0.043991
3485.060878,-0.031776,-0.04529
3486.924547,-0.033165,-0.047366
3488.788216,-0.034129,-0.048339
3490.651885,-0.035627,-0.049469
3492.515553,-0.035296,-0.04935
3494.379222,-0.034914,-0.049478
3496.242891,-0.035619,-0.050462
3498.10656,-0.035258,-0.049768
3499.970229,-0.033723,-0.047284
3501.833898,-0.030592,-0.043724
3503.697567,-0.028641,-0.041956
3505.561236,-0.031978,-0.045334
3507.424905,-0.03506,-0.047657
3509.288574,-0.033988,-0.046113
3511.152243,-0.033938,-0.046438
3513.015912,-0.038345,-0.051058
3514.87958,-0.040325,-0.052915
3516.743249,-0.038623,-0.051523
3518.606918,-0.035201,-0.049168
3520.470587,-0.032349,-0.046301
3522.334256,-0.028695,-0.041637
3524.197925,-0.025596,-0.038313
3526.061594,-0.026598,-0.039395
3527.925263,-0.027299,-0.039786
3529.788932,-0.029539,-0.041908
3531.652601,-0.034591,-0.047407
3533.51627,-0.036965,-0.049749
3535.379939,-0.035595,-0.047735
3537.243608,-0.035028,-0.04739
3539.107276,-0.037196,-0.050095
3540.970945,-0.037305,-0.050054
3542.834614,-0.032428,-0.04499
3544.698283,-0.024863,-0.037642
3546.561952,-0.021927,-0.034267
3548.425621,-0.028804,-0.04084
3550.28929,-0.034808,-0.047195
3552.152959,-0.032816,-0.045782
3554.016628,-0.032897,-0.046454
3555.880297,-0.036352,-0.049874
3557.743966,-0.03673,-0.050033
3559.607635,-0.032816,-0.045614
3561.471303,-0.02855,-0.041222
3563.334972,-0.023127,-0.036255
3565.198641,-0.011076,-0.024227
3567.06231,-0.000719,-0.013594
3568.925979,-0.010347,-0.023178
3570.789648,-0.028479,-0.04184
3572.653317,-0.036353,-0.049906
3574.516986,-0.036479,-0.049832
3576.380655,-0.036534,-0.049836
3578.244324,-0.036632,-0.049588
3580.107993,-0.035983,-0.048502
3581.971662,-0.034329,-0.046617
3583.83533,-0.030437,-0.042153
3585.698999,-0.020541,-0.032428
3587.562668,-0.009148,-0.021843
3589.426337,-0.016059,-0.029016
3591.290006,-0.029247,-0.042152
3593.153675,-0.028182,-0.041409
3595.017344,-0.022724,-0.036202
3596.881013,-0.024124,-0.037491
3598.744682,-0.028147,-0.040958
3600.608351,-0.029033,-0.041768
3602.47202,-0.030691,-0.04391
3604.335689,-0.032264,-0.045935
3606.199358,-0.025364,-0.039333
3608.063026,-0.014398,-0.027656
3609.926695,-0.01402,-0.026287
3611.790364,-0.017258,-0.029936
3613.654033,-0.013562,-0.026577
3615.517702,-0.014125,-0.026988
3617.381371,-0.014878,-0.027927
3619.24504,-0.011161,-0.024715
3621.108709,-0.018081,-0.032387
3622.972378,-0.029995,-0.044338
3624.836047,-0.031864,-0.045346
3626.699716,-0.020783,-0.033871
3628.563385,-0.00263,-0.015509
3630.427053,-0.006702,-0.019241
3632.290722,-0.026056,-0.038742
3634.154391,-0.033728,-0.046229
3636.01806,-0.038661,-0.050935
3637.881729,-0.04153,-0.053797
3639.745398,-0.039641,-0.052383
3641.609067,-0.036209,-0.048956
3643.472736,-0.032328,-0.044926
3645.336405,-0.022381,-0.035289
3647.200074,-0.000219,-0.012893
3649.063743,0.01583,0.003218
3650.927412,0.004585,-0.009076
3652.79108,-0.020616,-0.034622
3654.654749,-0.032488,-0.045638
3656.518418,-0.029526,-0.042138
3658.382087,-0.033764,-0.046677
3660.245756,-0.042165,-0.0554
3662.109425,-0.044597,-0.05772
3663.973094,-0.043505,-0.056135
3665.836763,-0.039719,-0.052025
3667.700432,-0.029568,-0.041958
3669.564101,-0.010568,-0.023783
3671.42777,-0.005981,-0.019761
3673.291439,-0.014244,-0.027392
3675.155107,-0.003029,-0.015696
3677.018776,-0.004301,-0.018228
3678.882445,-0.026291,-0.040351
3680.746114,-0.037362,-0.050874
3682.609783,-0.041455,-0.055194
3684.473452,-0.040626,-0.053955
3686.337121,-0.03213,-0.045199
3688.20079,-0.017007,-0.029868
3690.064459,-0.009729,-0.022796
3691.928128,-0.019939,-0.033909
3693.791797,-0.03354,-0.047749
3695.655466,-0.039177,-0.052439
3697.519135,-0.039842,-0.052552
3699.382803,-0.038036,-0.051332
3701.246472,-0.031886,-0.045534
3703.110141,-0.031794,-0.045302
3704.97381,-0.037884,-0.051454
3706.837479,-0.036157,-0.04981
3708.701148,-0.025421,-0.039122
3710.564817,-0.012856,-0.026334
3712.428486,-0.01132,-0.024698
3714.292155,-0.024439,-0.038042
3716.155824,-0.036496,-0.050324
3718.019493,-0.03562,-0.049799
3719.883162,-0.029346,-0.043843
3721.74683,-0.023337,-0.037241
3723.610499,-0.019519,-0.033012
3725.474168,-0.019576,-0.033275
3727.337837,-0.022051,-0.035837
3729.201506,-0.028213,-0.042206
3731.065175,-0.022714,-0.03637
3732.928844,-0.004049,-0.017555
3734.792513,0.010682,-0.003686
3736.656182,0.008175,-0.006908
3738.519851,-0.011968,-0.026995
3740.38352,-0.023389,-0.037527
3742.247189,-0.019689,-0.033466
3744.110857,-0.001362,-0.014997
3745.974526,0.003918,-0.010378
3747.838195,-0.007855,-0.021943
3749.701864,-0.00242,-0.015931
3751.565533,0.002171,-0.012505
3753.429202,-0.012664,-0.027721
3755.292871,-0.028416,-0.043046
3757.15654,-0.030743,-0.045121
3759.020209,-0.027503,-0.042258
3760.883878,-0.030943,-0.045649
3762.747547,-0.039333,-0.053596
3764.611216,-0.038035,-0.052063
3766.474885,-0.033067,-0.047301
3768.338553,-0.03366,-0.048341
3770.202222,-0.032224,-0.046914
3772.065891,-0.037812,-0.052305
3773.92956,-0.046064,-0.060393
3775.793229,-0.045669,-0.05989
3777.656898,-0.040102,-0.053876
3779.520567,-0.033474,-0.047555
3781.384236,-0.035799,-0.050976
3783.247905,-0.041103,-0.056147
3785.111574,-0.040408,-0.054729
3786.975243,-0.042632,-0.056695
3788.838912,-0.047203,-0.060954
3790.70258,-0.047912,-0.061547
3792.566249,-0.04647,-0.060083
3794.429918,-0.043167,-0.056589
3796.293587,-0.033283,-0.046966
3798.157256,-0.026661,-0.041394
3800.020925,-0.024006,-0.03926
3801.884594,-0.014922,-0.030702
3803.748263,-0.023879,-0.039801
3805.611932,-0.034618,-0.049487
3807.475601,-0.031608,-0.046409
3809.33927,-0.038776,-0.053884
3811.202939,-0.046668,-0.061389
3813.066607,-0.044077,-0.058401
3814.930276,-0.031999,-0.046466
3816.793945,-0.017935,-0.032756
3818.657614,-0.020063,-0.035254
3820.521283,-0.014729,-0.029598
3822.384952,-0.013246,-0.028023
3824.248621,-0.030128,-0.045139
3826.11229,-0.035398,-0.0505
3827.975959,-0.034156,-0.049539
3829.839628,-0.036712,-0.052125
3831.703297,-0.031831,-0.046983
3833.566966,-0.027149,-0.041607
3835.430634,-0.022834,-0.036992
3837.294303,-0.014063,-0.029486
3839.157972,-0.009331,-0.025347
3841.021641,-0.017061,-0.032545
3842.88531,-0.027165,-0.042498
3844.748979,-0.034208,-0.04958
3846.612648,-0.0414,-0.056356
3848.476317,-0.040907,-0.055084
3850.339986,-0.028627,-0.042675
3852.203655,-0.007098,-0.021761
3854.067324,0.007006,-0.008359
3855.930993,-0.013702,-0.030006
3857.794662,-0.032543,-0.048612
3859.65833,-0.037459,-0.052585
3861.521999,-0.031458,-0.046298
3863.385668,-0.022675,-0.038461
3865.249337,-0.01851,-0.034617
3867.113006,-0.024328,-0.03978
3868.976675,-0.021525,-0.036948
3870.840344,-0.012425,-0.028038
3872.704013,-0.022973,-0.038419
3874.567682,-0.028802,-0.043906
3876.431351,-0.035245,-0.050192
3878.29502,-0.038281,-0.05354
3880.158689,-0.026211,-0.042588
3882.022357,-0.022575,-0.039197
3883.886026,-0.029629,-0.045391
3885.749695,-0.026166,-0.041532
3887.613364,-0.031805,-0.04701
3889.477033,-0.040242,-0.054618
3891.340702,-0.03326,-0.047274
3893.204371,-0.030802,-0.045886
3895.06804,-0.037646,-0.053405
3896.931709,-0.037473,-0.053191
3898.795378,-0.026048,-0.041456
3900.659047,-0.015146,-0.030734
3902.522716,-0.012935,-0.029141
3904.386384,-0.016452,-0.032757
3906.250053,-0.029457,-0.045176
3908.113722,-0.044181,-0.05949
3909.977391,-0.050428,-0.065417
3911.84106,-0.0492,-0.06386
3913.704729,-0.046382,-0.061261
3915.568398,-0.03993,-0.055079
3917.432067,-0.032416,-0.04782
3919.295736,-0.03316,-0.048886
3921.159405,-0.037167,-0.052977
3923.023074,-0.03922,-0.054854
3924.886743,-0.037075,-0.052324
3926.750412,-0.039218,-0.054778
3928.61408,-0.041365,-0.057276
3930.477749,-0.0373,-0.053252
3932.341418,-0.034931,-0.050588
3934.205087,-0.03946,-0.054644
3936.068756,-0.046496,-0.06205
3937.932425,-0.046769,-0.062542
3939.796094,-0.044515,-0.060225
3941.659763,-0.040533,-0.056314
3943.523432,-0.035893,-0.051757
3945.387101,-0.03929,-0.054678
3947.25077,-0.040731,-0.055836
3949.114439,-0.037795,-0.053504
3950.978107,-0.040782,-0.056666
3952.841776,-0.045356,-0.061301
3954.705445,-0.046692,-0.062961
3956.569114,-0.046106,-0.062393
3958.432783,-0.046607,-0.062622
3960.296452,-0.04656,-0.061934
3962.160121,-0.045878,-0.061497
3964.02379,-0.04677,-0.062855
3965.887459,-0.049012,-0.064937
3967.751128,-0.049365,-0.065215
3969.614797,-0.048354,-0.064229
3971.478466,-0.047863,-0.063583
3973.342134,-0.047816,-0.063603
3975.205803,-0.047307,-0.062808
3977.069472,-0.048149,-0.063559
3978.933141,-0.049471,-0.065123
3980.79681,-0.050088,-0.06555
3982.660479,-0.049878,-0.065445
3984.524148,-0.050176,-0.065993
3986.387817,-0.050512,-0.066349
3988.251486,-0.049814,-0.066271
3990.115155,-0.048158,-0.06462
3991.978824,-0.048531,-0.064123
3993.842493,-0.049178,-0.064689
3995.706161,-0.049453,-0.065522
3997.56983,-0.0502,-0.066514
3999.433499,-0.050747,-0.067179
